============================================================================
*****************************lnN!=NlnN+N验证********************************
============================================================================

取值范围1<N<10000
取点个数:1000
是否考虑右侧第三项(Y/N):y

N           lnN!              Approve           differ           1/RE_dif          1/N_re_dif
___________________________________________________________________________________________



0         0.000000            0.000000          0.000000           1.000000            0.000000

10         15.104413            15.096082          0.008331           1813.132172            120.540594

20         42.335616            42.331450          0.004166           10161.394130            240.520335

30         74.658236            74.655459          0.002778           26877.960250            360.513561

40         110.320640            110.318556          0.002083           52955.010095            480.510172

50         148.477767            148.476100          0.001667           89087.847872            600.508138

60         188.628173            188.626785          0.001389           135813.542297            720.506782

70         230.439044            230.437853          0.001190           193570.113324            840.505813

80         273.673124            273.672083          0.001042           262727.567609            960.505087

90         318.152640            318.151714          0.000926           343606.264724            1080.504521

100         363.739376            363.738542          0.000833           436488.705564            1200.504069

110         410.322777            410.322019          0.000758           541627.556996            1320.503699

120         457.812388            457.811694          0.000694           659251.364552            1440.503391

130         506.132825            506.132184          0.000641           789568.764692            1560.503130

140         555.220294            555.219699          0.000595           932771.680283            1680.502906

150         605.020106            605.019550          0.000556           1089037.803492            1800.502712

160         655.484857            655.484336          0.000521           1258532.562730            1920.502542

170         706.573062            706.572572          0.000490           1441410.709091            2040.502393

180         758.248113            758.247650          0.000463           1637817.609047            2160.502261

190         810.477463            810.477024          0.000439           1847890.321526            2280.502142

200         863.231987            863.231571          0.000417           2071758.495758            2400.502035

210         916.485471            916.485074          0.000397           2309545.132011            2520.501938

220         970.214191            970.213813          0.000379           2561367.228912            2640.501850

230         1024.396582            1024.396219          0.000362           2827336.345999            2760.501769

240         1079.012947            1079.012600          0.000347           3107559.081703            2880.501692

250         1134.045232            1134.044898          0.000333           3402137.504802            3000.501623

260         1189.476824            1189.476503          0.000321           3711169.515180            3120.501561

270         1245.292387            1245.292078          0.000309           4034749.167168            3240.501498

280         1301.477720            1301.477422          0.000298           4372966.982873            3360.501442

290         1358.019634            1358.019347          0.000287           4725910.180036            3480.501389

300         1414.905850            1414.905572          0.000278           5093662.925263            3600.501342

310         1472.124906            1472.124637          0.000269           5476306.518296            3720.501292

320         1529.666078            1529.665818          0.000260           5873919.608091            3840.501243

330         1587.519313            1587.519061          0.000253           6286578.347901            3960.501197

340         1645.675166            1645.674921          0.000245           6714356.561686            4080.501164

350         1704.124747            1704.124509          0.000238           7157325.833328            4200.501132

360         1762.859673            1762.859442          0.000231           7615555.681538            4320.501093

370         1821.872027            1821.871802          0.000225           8089113.712449            4440.501068

380         1881.154319            1881.154100          0.000219           8578065.635886            4560.501049

390         1940.699454            1940.699240          0.000214           9082475.386699            4680.501019

400         2000.500698            2000.500490          0.000208           9602405.266204            4800.500975

410         2060.551656            2060.551453          0.000203           10137916.080401            4920.500955

420         2120.846243            2120.846045          0.000198           10689066.975955            5040.500918

430         2181.378665            2181.378471          0.000194           11255915.826887            5160.500895

440         2242.143395            2242.143206          0.000189           11838519.036117            5280.500868

450         2303.135160            2303.134975          0.000185           12436931.750258            5400.500835

460         2364.348918            2364.348737          0.000181           13051207.901186            5520.500807

470         2425.779849            2425.779671          0.000177           13681400.218547            5640.500786

480         2487.423335            2487.423161          0.000174           14327560.239737            5760.500750

490         2549.274953            2549.274783          0.000170           14989738.441263            5880.500688

500         2611.330458            2611.330292          0.000167           15667984.500313            6000.500684

510         2673.585777            2673.585614          0.000163           16362346.661625            6120.500651

520         2736.036995            2736.036835          0.000160           17072872.449118            6240.500598

530         2798.680348            2798.680191          0.000157           17799608.582500            6360.500574

540         2861.512213            2861.512058          0.000154           18542600.869407            6480.500618

550         2924.529102            2924.528951          0.000152           19301893.624282            6600.500543

560         2987.727655            2987.727506          0.000149           20077531.465265            6720.500557

570         3051.104629            3051.104482          0.000146           20869557.347592            6840.500565

580         3114.656896            3114.656753          0.000144           21678013.725804            6960.500567

590         3178.381438            3178.381297          0.000141           22502942.175205            7080.500514

600         3242.275335            3242.275196          0.000139           23344383.989606            7200.500497

610         3306.335768            3306.335632          0.000137           24202379.602105            7320.500549

620         3370.560009            3370.559875          0.000134           25076968.238573            7440.500537

630         3434.945417            3434.945285          0.000132           25968189.048616            7560.500505

640         3499.489436            3499.489305          0.000130           26876080.468085            7680.500469

650         3564.189589            3564.189461          0.000128           27800680.410231            7800.500465

660         3629.043476            3629.043350          0.000126           28742025.721744            7920.500394

670         3694.048769            3694.048645          0.000124           29700153.533201            8040.500397

680         3759.203210            3759.203088          0.000123           30675099.454776            8160.500345

690         3824.504607            3824.504487          0.000121           31666899.435760            8280.500346

700         3889.950832            3889.950713          0.000119           32675588.214821            8400.500324

710         3955.539817            3955.539700          0.000117           33701200.426661            8520.500309

720         4021.269553            4021.269437          0.000116           34743770.094666            8640.500298

730         4087.138085            4087.137971          0.000114           35803330.907697            8760.500324

740         4153.143514            4153.143401          0.000113           36879915.596499            8880.500296

750         4219.283991            4219.283880          0.000111           37973557.052285            9000.500278

760         4285.557717            4285.557607          0.000110           39084287.511459            9120.500274

770         4351.962938            4351.962830          0.000108           40212138.534924            9240.500235

780         4418.497950            4418.497843          0.000107           41357141.865847            9360.500248

790         4485.161087            4485.160982          0.000105           42519327.554713            9480.500108

800         4551.950731            4551.950627          0.000104           43698727.101184            9600.500028

810         4618.865299            4618.865196          0.000103           44895370.796565            9720.500028

820         4685.903251            4685.903150          0.000102           46109287.812704            9840.499970

830         4753.063083            4753.062983          0.000100           47340508.187765            9960.499982

840         4820.343328            4820.343229          0.000099           48589060.522497            10080.499962

850         4887.742552            4887.742454          0.000098           49854973.855059            10200.499973

860         4955.259356            4955.259259          0.000097           51138276.748346            10320.500047

870         5022.892375            5022.892279          0.000096           52438996.259021            10440.499981

880         5090.640273            5090.640178          0.000095           53757160.401069            10560.499835

890         5158.501745            5158.501651          0.000094           55092799.139527            10680.500106

900         5226.475515            5226.475423          0.000093           56445935.679103            10800.500029

910         5294.560338            5294.560246          0.000092           57816598.317181            10920.499899

920         5362.754992            5362.754902          0.000091           59204813.656504            11040.499735

930         5431.058286            5431.058196          0.000090           60610609.415823            11160.499814

940         5499.469050            5499.468961          0.000089           62034008.391964            11280.499555

950         5567.986143            5567.986055          0.000088           63475039.657426            11400.499582

960         5636.608445            5636.608358          0.000087           64933726.354141            11520.499487

970         5705.334862            5705.334776          0.000086           66410094.864518            11640.499494

980         5774.164320            5774.164235          0.000085           67904169.292553            11760.499468

990         5843.095769            5843.095685          0.000084           69415973.098750            11880.499214

1000         5912.128178            5912.128095          0.000083           70945533.481634            12000.499219

1010         5981.260540            5981.260457          0.000083           72492873.083123            12120.499228

1020         6050.491864            6050.491782          0.000082           74058015.755811            12240.499238

1030         6119.821180            6119.821099          0.000081           75640985.057286            12360.499234

1040         6189.247538            6189.247458          0.000080           77241804.240121            12480.499192

1050         6258.770006            6258.769927          0.000079           78860496.292094            12600.499083

1060         6328.387668            6328.387589          0.000079           80497084.965382            12720.499032

1070         6398.099626            6398.099548          0.000078           82151592.202449            12840.498914

1080         6467.905000            6467.904922          0.000077           83824040.068125            12960.498657

1090         6537.802924            6537.802848          0.000076           85514452.080307            13080.498451

1100         6607.792552            6607.792476          0.000076           87222850.621918            13200.498332

1110         6677.873048            6677.872973          0.000075           88949258.224065            13320.498393

1120         6748.043595            6748.043521          0.000074           90693695.801084            13440.498507

1130         6818.303389            6818.303315          0.000074           92456182.896384            13560.498384

1140         6888.651641            6888.651567          0.000073           94236746.237210            13680.498815

1150         6959.087574            6959.087502          0.000072           96035399.647311            13800.498731

1160         7029.610428            7029.610356          0.000072           97852168.844540            13920.498824

1170         7100.219452            7100.219381          0.000071           99687073.466954            14040.498930

1180         7170.913911            7170.913840          0.000071           101540130.846827            14160.498594

1190         7241.693080            7241.693010          0.000070           103411365.890936            14280.498446

1200         7312.556249            7312.556180          0.000069           105300801.924130            14400.498903

1210         7383.502718            7383.502649          0.000069           107208449.988191            14520.498722

1220         7454.531798            7454.531730          0.000068           109134340.092014            14640.499277

1230         7525.642812            7525.642745          0.000068           111078480.022003            14760.498957

1240         7596.835096            7596.835029          0.000067           113040897.762775            14880.498892

1250         7668.107992            7668.107926          0.000067           115021610.762644            15000.498816

1260         7739.460858            7739.460792          0.000066           117020640.130125            15120.498966

1270         7810.893058            7810.892993          0.000066           119038000.749875            15240.498795

1280         7882.403968            7882.403903          0.000065           121073716.945153            15360.498990

1290         7953.992973            7953.992909          0.000065           123127797.242060            15480.498247

1300         8025.659469            8025.659405          0.000064           125200276.347858            15600.498589

1310         8097.402859            8097.402795          0.000064           127291161.602316            15720.498606

1320         8169.222556            8169.222493          0.000063           129400477.573794            15840.499062

1330         8241.117983            8241.117920          0.000063           131528231.547677            15960.498615

1340         8313.088570            8313.088508          0.000062           133674457.929630            16080.499251

1350         8385.133757            8385.133695          0.000062           135839167.126259            16200.500037

1360         8457.252991            8457.252930          0.000061           138022377.037773            16320.500978

1370         8529.445728            8529.445667          0.000061           140224103.138114            16440.501807

1380         8601.711432            8601.711372          0.000060           142444357.828757            16560.501925

1390         8674.049574            8674.049514          0.000060           144683158.523526            16680.501345

1400         8746.459634            8746.459574          0.000060           146940527.909602            16800.500698

1410         8818.941097            8818.941038          0.000059           149216494.204092            16920.501235

1420         8891.493457            8891.493398          0.000059           151511063.228739            17040.501660

1430         8964.116216            8964.116158          0.000058           153824239.505421            17160.500589

1440         9036.808881            9036.808823          0.000058           156156070.041804            17280.501397

1450         9109.570967            9109.570909          0.000057           158506543.439216            17400.500951

1460         9182.401995            9182.401938          0.000057           160875690.643926            17520.500843

1470         9255.301493            9255.301437          0.000057           163263537.054092            17640.502026

1480         9328.268996            9328.268940          0.000056           165670069.419172            17760.501296

1490         9401.304045            9401.303989          0.000056           168095335.215746            17880.502015

1500         9474.406185            9474.406129          0.000056           170539331.767586            18000.502162

1510         9547.574970            9547.574915          0.000055           173002080.289318            18120.502291

1520         9620.809959            9620.809904          0.000055           175483604.953042            18240.503258

1530         9694.110717            9694.110662          0.000054           177983903.177488            18360.503143

1540         9767.476812            9767.476758          0.000054           180502991.077954            18480.502010

1550         9840.907823            9840.907769          0.000054           183040905.243378            18600.502010

1560         9914.403329            9914.403275          0.000053           185597647.699030            18720.501758

1570         9987.962917            9987.962864          0.000053           188173246.505076            18840.502521

1580         10061.586180            10061.586128          0.000053           190767692.430901            18960.501838

1590         10135.272715            10135.272663          0.000052           193381028.857890            19080.502516

1600         10209.022123            10209.022071          0.000052           196013247.402510            19200.502222

1610         10282.834012            10282.833961          0.000052           198664394.101009            19320.503990

1620         10356.707994            10356.707943          0.000051           201334446.526380            19440.504167

1630         10430.643686            10430.643635          0.000051           204023444.613827            19560.505192

1640         10504.640709            10504.640658          0.000051           206731370.901701            19680.503978

1650         10578.698690            10578.698639          0.000051           209458280.419436            19800.504387

1660         10652.817258            10652.817208          0.000050           212204161.520772            19920.503922

1670         10726.996050            10726.996000          0.000050           214969062.312925            20040.505735

1680         10801.234704            10801.234655          0.000050           217752960.514044            20160.506381

